#  E (eV)   dos(E)     Int dos(E) EFermi =   -2.671 eV
 -10.000  0.1048E+01  0.1048E-01
  -9.990  0.1062E+01  0.2110E-01
  -9.980  0.1074E+01  0.3184E-01
  -9.970  0.1082E+01  0.4267E-01
  -9.960  0.1087E+01  0.5354E-01
  -9.950  0.1088E+01  0.6443E-01
  -9.940  0.1085E+01  0.7527E-01
  -9.930  0.1077E+01  0.8604E-01
  -9.920  0.1063E+01  0.9667E-01
  -9.910  0.1045E+01  0.1071E+00
  -9.900  0.1022E+01  0.1173E+00
  -9.890  0.9940E+00  0.1273E+00
  -9.880  0.9627E+00  0.1369E+00
  -9.870  0.9286E+00  0.1462E+00
  -9.860  0.8929E+00  0.1551E+00
  -9.850  0.8569E+00  0.1637E+00
  -9.840  0.8219E+00  0.1719E+00
  -9.830  0.7893E+00  0.1798E+00
  -9.820  0.7605E+00  0.1874E+00
  -9.810  0.7365E+00  0.1948E+00
  -9.800  0.7183E+00  0.2020E+00
  -9.790  0.7064E+00  0.2090E+00
  -9.780  0.7009E+00  0.2160E+00
  -9.770  0.7018E+00  0.2230E+00
  -9.760  0.7083E+00  0.2301E+00
  -9.750  0.7195E+00  0.2373E+00
  -9.740  0.7342E+00  0.2447E+00
  -9.730  0.7508E+00  0.2522E+00
  -9.720  0.7679E+00  0.2599E+00
  -9.710  0.7839E+00  0.2677E+00
  -9.700  0.7974E+00  0.2757E+00
  -9.690  0.8072E+00  0.2837E+00
  -9.680  0.8125E+00  0.2919E+00
  -9.670  0.8128E+00  0.3000E+00
  -9.660  0.8082E+00  0.3081E+00
  -9.650  0.7988E+00  0.3161E+00
  -9.640  0.7855E+00  0.3239E+00
  -9.630  0.7692E+00  0.3316E+00
  -9.620  0.7510E+00  0.3391E+00
  -9.610  0.7322E+00  0.3464E+00
  -9.600  0.7140E+00  0.3536E+00
  -9.590  0.6974E+00  0.3606E+00
  -9.580  0.6832E+00  0.3674E+00
  -9.570  0.6722E+00  0.3741E+00
  -9.560  0.6646E+00  0.3808E+00
  -9.550  0.6604E+00  0.3874E+00
  -9.540  0.6597E+00  0.3940E+00
  -9.530  0.6621E+00  0.4006E+00
  -9.520  0.6674E+00  0.4073E+00
  -9.510  0.6750E+00  0.4140E+00
  -9.500  0.6850E+00  0.4209E+00
  -9.490  0.6970E+00  0.4278E+00
  -9.480  0.7112E+00  0.4349E+00
  -9.470  0.7278E+00  0.4422E+00
  -9.460  0.7471E+00  0.4497E+00
  -9.450  0.7696E+00  0.4574E+00
  -9.440  0.7956E+00  0.4653E+00
  -9.430  0.8254E+00  0.4736E+00
  -9.420  0.8594E+00  0.4822E+00
  -9.410  0.8973E+00  0.4912E+00
  -9.400  0.9390E+00  0.5005E+00
  -9.390  0.9838E+00  0.5104E+00
  -9.380  0.1031E+01  0.5207E+00
  -9.370  0.1079E+01  0.5315E+00
  -9.360  0.1127E+01  0.5428E+00
  -9.350  0.1174E+01  0.5545E+00
  -9.340  0.1217E+01  0.5667E+00
  -9.330  0.1256E+01  0.5792E+00
  -9.320  0.1290E+01  0.5921E+00
  -9.310  0.1317E+01  0.6053E+00
  -9.300  0.1338E+01  0.6187E+00
  -9.290  0.1352E+01  0.6322E+00
  -9.280  0.1359E+01  0.6458E+00
  -9.270  0.1360E+01  0.6594E+00
  -9.260  0.1354E+01  0.6729E+00
  -9.250  0.1344E+01  0.6864E+00
  -9.240  0.1329E+01  0.6997E+00
  -9.230  0.1310E+01  0.7128E+00
  -9.220  0.1289E+01  0.7256E+00
  -9.210  0.1265E+01  0.7383E+00
  -9.200  0.1239E+01  0.7507E+00
  -9.190  0.1211E+01  0.7628E+00
  -9.180  0.1180E+01  0.7746E+00
  -9.170  0.1148E+01  0.7861E+00
  -9.160  0.1113E+01  0.7972E+00
  -9.150  0.1077E+01  0.8080E+00
  -9.140  0.1037E+01  0.8183E+00
  -9.130  0.9959E+00  0.8283E+00
  -9.120  0.9526E+00  0.8378E+00
  -9.110  0.9078E+00  0.8469E+00
  -9.100  0.8623E+00  0.8555E+00
  -9.090  0.8171E+00  0.8637E+00
  -9.080  0.7731E+00  0.8714E+00
  -9.070  0.7316E+00  0.8787E+00
  -9.060  0.6936E+00  0.8857E+00
  -9.050  0.6605E+00  0.8923E+00
  -9.040  0.6332E+00  0.8986E+00
  -9.030  0.6128E+00  0.9047E+00
  -9.020  0.5999E+00  0.9107E+00
  -9.010  0.5951E+00  0.9167E+00
  -9.000  0.5986E+00  0.9227E+00
  -8.990  0.6104E+00  0.9288E+00
  -8.980  0.6303E+00  0.9351E+00
  -8.970  0.6576E+00  0.9417E+00
  -8.960  0.6916E+00  0.9486E+00
  -8.950  0.7311E+00  0.9559E+00
  -8.940  0.7750E+00  0.9636E+00
  -8.930  0.8220E+00  0.9719E+00
  -8.920  0.8707E+00  0.9806E+00
  -8.910  0.9195E+00  0.9898E+00
  -8.900  0.9672E+00  0.9994E+00
  -8.890  0.1012E+01  0.1010E+01
  -8.880  0.1054E+01  0.1020E+01
  -8.870  0.1091E+01  0.1031E+01
  -8.860  0.1122E+01  0.1042E+01
  -8.850  0.1148E+01  0.1054E+01
  -8.840  0.1167E+01  0.1065E+01
  -8.830  0.1180E+01  0.1077E+01
  -8.820  0.1187E+01  0.1089E+01
  -8.810  0.1187E+01  0.1101E+01
  -8.800  0.1182E+01  0.1113E+01
  -8.790  0.1172E+01  0.1124E+01
  -8.780  0.1158E+01  0.1136E+01
  -8.770  0.1139E+01  0.1147E+01
  -8.760  0.1117E+01  0.1159E+01
  -8.750  0.1093E+01  0.1170E+01
  -8.740  0.1065E+01  0.1180E+01
  -8.730  0.1036E+01  0.1191E+01
  -8.720  0.1005E+01  0.1201E+01
  -8.710  0.9722E+00  0.1210E+01
  -8.700  0.9386E+00  0.1220E+01
  -8.690  0.9044E+00  0.1229E+01
  -8.680  0.8701E+00  0.1237E+01
  -8.670  0.8365E+00  0.1246E+01
  -8.660  0.8043E+00  0.1254E+01
  -8.650  0.7744E+00  0.1262E+01
  -8.640  0.7479E+00  0.1269E+01
  -8.630  0.7258E+00  0.1276E+01
  -8.620  0.7092E+00  0.1283E+01
  -8.610  0.6989E+00  0.1290E+01
  -8.600  0.6958E+00  0.1297E+01
  -8.590  0.7002E+00  0.1304E+01
  -8.580  0.7123E+00  0.1312E+01
  -8.570  0.7318E+00  0.1319E+01
  -8.560  0.7579E+00  0.1326E+01
  -8.550  0.7895E+00  0.1334E+01
  -8.540  0.8249E+00  0.1343E+01
  -8.530  0.8623E+00  0.1351E+01
  -8.520  0.8994E+00  0.1360E+01
  -8.510  0.9339E+00  0.1370E+01
  -8.500  0.9635E+00  0.1379E+01
  -8.490  0.9861E+00  0.1389E+01
  -8.480  0.9999E+00  0.1399E+01
  -8.470  0.1003E+01  0.1409E+01
  -8.460  0.9953E+00  0.1419E+01
  -8.450  0.9755E+00  0.1429E+01
  -8.440  0.9442E+00  0.1438E+01
  -8.430  0.9020E+00  0.1447E+01
  -8.420  0.8502E+00  0.1456E+01
  -8.410  0.7905E+00  0.1464E+01
  -8.400  0.7249E+00  0.1471E+01
  -8.390  0.6559E+00  0.1477E+01
  -8.380  0.5858E+00  0.1483E+01
  -8.370  0.5171E+00  0.1488E+01
  -8.360  0.4522E+00  0.1493E+01
  -8.350  0.3930E+00  0.1497E+01
  -8.340  0.3416E+00  0.1500E+01
  -8.330  0.2994E+00  0.1503E+01
  -8.320  0.2673E+00  0.1506E+01
  -8.310  0.2462E+00  0.1508E+01
  -8.300  0.2362E+00  0.1511E+01
  -8.290  0.2372E+00  0.1513E+01
  -8.280  0.2485E+00  0.1516E+01
  -8.270  0.2691E+00  0.1518E+01
  -8.260  0.2980E+00  0.1521E+01
  -8.250  0.3335E+00  0.1525E+01
  -8.240  0.3741E+00  0.1528E+01
  -8.230  0.4181E+00  0.1533E+01
  -8.220  0.4636E+00  0.1537E+01
  -8.210  0.5091E+00  0.1542E+01
  -8.200  0.5532E+00  0.1548E+01
  -8.190  0.5946E+00  0.1554E+01
  -8.180  0.6324E+00  0.1560E+01
  -8.170  0.6661E+00  0.1567E+01
  -8.160  0.6956E+00  0.1574E+01
  -8.150  0.7212E+00  0.1581E+01
  -8.140  0.7434E+00  0.1588E+01
  -8.130  0.7633E+00  0.1596E+01
  -8.120  0.7821E+00  0.1604E+01
  -8.110  0.8010E+00  0.1612E+01
  -8.100  0.8213E+00  0.1620E+01
  -8.090  0.8444E+00  0.1629E+01
  -8.080  0.8711E+00  0.1637E+01
  -8.070  0.9020E+00  0.1646E+01
  -8.060  0.9374E+00  0.1656E+01
  -8.050  0.9768E+00  0.1665E+01
  -8.040  0.1019E+01  0.1676E+01
  -8.030  0.1064E+01  0.1686E+01
  -8.020  0.1108E+01  0.1697E+01
  -8.010  0.1151E+01  0.1709E+01
  -8.000  0.1189E+01  0.1721E+01
  -7.990  0.1220E+01  0.1733E+01
  -7.980  0.1242E+01  0.1745E+01
  -7.970  0.1253E+01  0.1758E+01
  -7.960  0.1251E+01  0.1770E+01
  -7.950  0.1235E+01  0.1783E+01
  -7.940  0.1205E+01  0.1795E+01
  -7.930  0.1160E+01  0.1806E+01
  -7.920  0.1102E+01  0.1817E+01
  -7.910  0.1032E+01  0.1828E+01
  -7.900  0.9516E+00  0.1837E+01
  -7.890  0.8638E+00  0.1846E+01
  -7.880  0.7713E+00  0.1854E+01
  -7.870  0.6770E+00  0.1860E+01
  -7.860  0.5840E+00  0.1866E+01
  -7.850  0.4953E+00  0.1871E+01
  -7.840  0.4134E+00  0.1875E+01
  -7.830  0.3405E+00  0.1879E+01
  -7.820  0.2784E+00  0.1881E+01
  -7.810  0.2284E+00  0.1884E+01
  -7.800  0.1909E+00  0.1886E+01
  -7.790  0.1661E+00  0.1887E+01
  -7.780  0.1533E+00  0.1889E+01
  -7.770  0.1516E+00  0.1890E+01
  -7.760  0.1596E+00  0.1892E+01
  -7.750  0.1754E+00  0.1894E+01
  -7.740  0.1971E+00  0.1896E+01
  -7.730  0.2228E+00  0.1898E+01
  -7.720  0.2504E+00  0.1900E+01
  -7.710  0.2783E+00  0.1903E+01
  -7.700  0.3047E+00  0.1906E+01
  -7.690  0.3284E+00  0.1910E+01
  -7.680  0.3487E+00  0.1913E+01
  -7.670  0.3651E+00  0.1917E+01
  -7.660  0.3776E+00  0.1920E+01
  -7.650  0.3865E+00  0.1924E+01
  -7.640  0.3927E+00  0.1928E+01
  -7.630  0.3972E+00  0.1932E+01
  -7.620  0.4013E+00  0.1936E+01
  -7.610  0.4063E+00  0.1940E+01
  -7.600  0.4136E+00  0.1944E+01
  -7.590  0.4244E+00  0.1949E+01
  -7.580  0.4399E+00  0.1953E+01
  -7.570  0.4608E+00  0.1958E+01
  -7.560  0.4876E+00  0.1963E+01
  -7.550  0.5205E+00  0.1968E+01
  -7.540  0.5590E+00  0.1973E+01
  -7.530  0.6026E+00  0.1979E+01
  -7.520  0.6503E+00  0.1986E+01
  -7.510  0.7006E+00  0.1993E+01
  -7.500  0.7523E+00  0.2000E+01
  -7.490  0.8035E+00  0.2008E+01
  -7.480  0.8528E+00  0.2017E+01
  -7.470  0.8986E+00  0.2026E+01
  -7.460  0.9396E+00  0.2035E+01
  -7.450  0.9744E+00  0.2045E+01
  -7.440  0.1002E+01  0.2055E+01
  -7.430  0.1023E+01  0.2065E+01
  -7.420  0.1036E+01  0.2076E+01
  -7.410  0.1041E+01  0.2086E+01
  -7.400  0.1038E+01  0.2096E+01
  -7.390  0.1029E+01  0.2107E+01
  -7.380  0.1014E+01  0.2117E+01
  -7.370  0.9940E+00  0.2127E+01
  -7.360  0.9695E+00  0.2137E+01
  -7.350  0.9418E+00  0.2146E+01
  -7.340  0.9117E+00  0.2155E+01
  -7.330  0.8802E+00  0.2164E+01
  -7.320  0.8479E+00  0.2172E+01
  -7.310  0.8156E+00  0.2181E+01
  -7.300  0.7837E+00  0.2188E+01
  -7.290  0.7527E+00  0.2196E+01
  -7.280  0.7229E+00  0.2203E+01
  -7.270  0.6945E+00  0.2210E+01
  -7.260  0.6677E+00  0.2217E+01
  -7.250  0.6425E+00  0.2223E+01
  -7.240  0.6190E+00  0.2229E+01
  -7.230  0.5972E+00  0.2235E+01
  -7.220  0.5769E+00  0.2241E+01
  -7.210  0.5583E+00  0.2247E+01
  -7.200  0.5411E+00  0.2252E+01
  -7.190  0.5255E+00  0.2257E+01
  -7.180  0.5112E+00  0.2262E+01
  -7.170  0.4983E+00  0.2267E+01
  -7.160  0.4866E+00  0.2272E+01
  -7.150  0.4762E+00  0.2277E+01
  -7.140  0.4669E+00  0.2282E+01
  -7.130  0.4586E+00  0.2286E+01
  -7.120  0.4511E+00  0.2291E+01
  -7.110  0.4442E+00  0.2295E+01
  -7.100  0.4377E+00  0.2300E+01
  -7.090  0.4311E+00  0.2304E+01
  -7.080  0.4243E+00  0.2308E+01
  -7.070  0.4169E+00  0.2312E+01
  -7.060  0.4088E+00  0.2316E+01
  -7.050  0.3997E+00  0.2320E+01
  -7.040  0.3895E+00  0.2324E+01
  -7.030  0.3785E+00  0.2328E+01
  -7.020  0.3669E+00  0.2332E+01
  -7.010  0.3551E+00  0.2335E+01
  -7.000  0.3437E+00  0.2339E+01
  -6.990  0.3336E+00  0.2342E+01
  -6.980  0.3257E+00  0.2345E+01
  -6.970  0.3210E+00  0.2349E+01
  -6.960  0.3204E+00  0.2352E+01
  -6.950  0.3250E+00  0.2355E+01
  -6.940  0.3355E+00  0.2358E+01
  -6.930  0.3527E+00  0.2362E+01
  -6.920  0.3770E+00  0.2366E+01
  -6.910  0.4084E+00  0.2370E+01
  -6.900  0.4468E+00  0.2374E+01
  -6.890  0.4917E+00  0.2379E+01
  -6.880  0.5421E+00  0.2385E+01
  -6.870  0.5970E+00  0.2391E+01
  -6.860  0.6550E+00  0.2397E+01
  -6.850  0.7143E+00  0.2404E+01
  -6.840  0.7732E+00  0.2412E+01
  -6.830  0.8299E+00  0.2420E+01
  -6.820  0.8825E+00  0.2429E+01
  -6.810  0.9291E+00  0.2438E+01
  -6.800  0.9682E+00  0.2448E+01
  -6.790  0.9982E+00  0.2458E+01
  -6.780  0.1018E+01  0.2468E+01
  -6.770  0.1027E+01  0.2479E+01
  -6.760  0.1024E+01  0.2489E+01
  -6.750  0.1010E+01  0.2499E+01
  -6.740  0.9836E+00  0.2509E+01
  -6.730  0.9469E+00  0.2518E+01
  -6.720  0.9004E+00  0.2527E+01
  -6.710  0.8455E+00  0.2536E+01
  -6.700  0.7838E+00  0.2543E+01
  -6.690  0.7172E+00  0.2551E+01
  -6.680  0.6475E+00  0.2557E+01
  -6.670  0.5768E+00  0.2563E+01
  -6.660  0.5070E+00  0.2568E+01
  -6.650  0.4399E+00  0.2572E+01
  -6.640  0.3772E+00  0.2576E+01
  -6.630  0.3203E+00  0.2579E+01
  -6.620  0.2701E+00  0.2582E+01
  -6.610  0.2274E+00  0.2584E+01
  -6.600  0.1925E+00  0.2586E+01
  -6.590  0.1655E+00  0.2588E+01
  -6.580  0.1461E+00  0.2589E+01
  -6.570  0.1339E+00  0.2591E+01
  -6.560  0.1281E+00  0.2592E+01
  -6.550  0.1280E+00  0.2593E+01
  -6.540  0.1329E+00  0.2595E+01
  -6.530  0.1419E+00  0.2596E+01
  -6.520  0.1546E+00  0.2598E+01
  -6.510  0.1705E+00  0.2599E+01
  -6.500  0.1892E+00  0.2601E+01
  -6.490  0.2107E+00  0.2603E+01
  -6.480  0.2351E+00  0.2606E+01
  -6.470  0.2627E+00  0.2608E+01
  -6.460  0.2936E+00  0.2611E+01
  -6.450  0.3283E+00  0.2614E+01
  -6.440  0.3671E+00  0.2618E+01
  -6.430  0.4100E+00  0.2622E+01
  -6.420  0.4571E+00  0.2627E+01
  -6.410  0.5081E+00  0.2632E+01
  -6.400  0.5626E+00  0.2637E+01
  -6.390  0.6197E+00  0.2644E+01
  -6.380  0.6784E+00  0.2650E+01
  -6.370  0.7374E+00  0.2658E+01
  -6.360  0.7952E+00  0.2666E+01
  -6.350  0.8503E+00  0.2674E+01
  -6.340  0.9010E+00  0.2683E+01
  -6.330  0.9459E+00  0.2693E+01
  -6.320  0.9834E+00  0.2703E+01
  -6.310  0.1013E+01  0.2713E+01
  -6.300  0.1032E+01  0.2723E+01
  -6.290  0.1042E+01  0.2733E+01
  -6.280  0.1042E+01  0.2744E+01
  -6.270  0.1033E+01  0.2754E+01
  -6.260  0.1015E+01  0.2764E+01
  -6.250  0.9889E+00  0.2774E+01
  -6.240  0.9566E+00  0.2784E+01
  -6.230  0.9195E+00  0.2793E+01
  -6.220  0.8792E+00  0.2802E+01
  -6.210  0.8375E+00  0.2810E+01
  -6.200  0.7959E+00  0.2818E+01
  -6.190  0.7558E+00  0.2826E+01
  -6.180  0.7184E+00  0.2833E+01
  -6.170  0.6844E+00  0.2840E+01
  -6.160  0.6545E+00  0.2846E+01
  -6.150  0.6289E+00  0.2853E+01
  -6.140  0.6073E+00  0.2859E+01
  -6.130  0.5894E+00  0.2865E+01
  -6.120  0.5746E+00  0.2870E+01
  -6.110  0.5621E+00  0.2876E+01
  -6.100  0.5510E+00  0.2881E+01
  -6.090  0.5406E+00  0.2887E+01
  -6.080  0.5301E+00  0.2892E+01
  -6.070  0.5189E+00  0.2897E+01
  -6.060  0.5065E+00  0.2902E+01
  -6.050  0.4928E+00  0.2907E+01
  -6.040  0.4778E+00  0.2912E+01
  -6.030  0.4618E+00  0.2917E+01
  -6.020  0.4451E+00  0.2921E+01
  -6.010  0.4284E+00  0.2925E+01
  -6.000  0.4125E+00  0.2930E+01
  -5.990  0.3981E+00  0.2934E+01
  -5.980  0.3860E+00  0.2937E+01
  -5.970  0.3769E+00  0.2941E+01
  -5.960  0.3716E+00  0.2945E+01
  -5.950  0.3704E+00  0.2949E+01
  -5.940  0.3737E+00  0.2952E+01
  -5.930  0.3814E+00  0.2956E+01
  -5.920  0.3934E+00  0.2960E+01
  -5.910  0.4092E+00  0.2964E+01
  -5.900  0.4281E+00  0.2968E+01
  -5.890  0.4491E+00  0.2973E+01
  -5.880  0.4713E+00  0.2978E+01
  -5.870  0.4933E+00  0.2983E+01
  -5.860  0.5138E+00  0.2988E+01
  -5.850  0.5318E+00  0.2993E+01
  -5.840  0.5458E+00  0.2998E+01
  -5.830  0.5549E+00  0.3004E+01
  -5.820  0.5582E+00  0.3010E+01
  -5.810  0.5551E+00  0.3015E+01
  -5.800  0.5452E+00  0.3021E+01
  -5.790  0.5286E+00  0.3026E+01
  -5.780  0.5054E+00  0.3031E+01
  -5.770  0.4763E+00  0.3036E+01
  -5.760  0.4420E+00  0.3040E+01
  -5.750  0.4036E+00  0.3044E+01
  -5.740  0.3621E+00  0.3048E+01
  -5.730  0.3188E+00  0.3051E+01
  -5.720  0.2749E+00  0.3054E+01
  -5.710  0.2317E+00  0.3056E+01
  -5.700  0.1904E+00  0.3058E+01
  -5.690  0.1519E+00  0.3059E+01
  -5.680  0.1172E+00  0.3061E+01
  -5.670  0.8684E-01  0.3062E+01
  -5.660  0.6149E-01  0.3062E+01
  -5.650  0.4150E-01  0.3063E+01
  -5.640  0.2711E-01  0.3063E+01
  -5.630  0.1844E-01  0.3063E+01
  -5.620  0.1553E-01  0.3063E+01
  -5.610  0.1833E-01  0.3063E+01
  -5.600  0.2674E-01  0.3064E+01
  -5.590  0.4066E-01  0.3064E+01
  -5.580  0.5992E-01  0.3065E+01
  -5.570  0.8437E-01  0.3065E+01
  -5.560  0.1138E+00  0.3067E+01
  -5.550  0.1480E+00  0.3068E+01
  -5.540  0.1868E+00  0.3070E+01
  -5.530  0.2297E+00  0.3072E+01
  -5.520  0.2763E+00  0.3075E+01
  -5.510  0.3263E+00  0.3078E+01
  -5.500  0.3789E+00  0.3082E+01
  -5.490  0.4334E+00  0.3086E+01
  -5.480  0.4891E+00  0.3091E+01
  -5.470  0.5451E+00  0.3097E+01
  -5.460  0.6003E+00  0.3103E+01
  -5.450  0.6537E+00  0.3109E+01
  -5.440  0.7043E+00  0.3116E+01
  -5.430  0.7511E+00  0.3124E+01
  -5.420  0.7931E+00  0.3132E+01
  -5.410  0.8295E+00  0.3140E+01
  -5.400  0.8595E+00  0.3149E+01
  -5.390  0.8827E+00  0.3157E+01
  -5.380  0.8987E+00  0.3166E+01
  -5.370  0.9074E+00  0.3176E+01
  -5.360  0.9090E+00  0.3185E+01
  -5.350  0.9039E+00  0.3194E+01
  -5.340  0.8926E+00  0.3203E+01
  -5.330  0.8758E+00  0.3211E+01
  -5.320  0.8546E+00  0.3220E+01
  -5.310  0.8300E+00  0.3228E+01
  -5.300  0.8029E+00  0.3236E+01
  -5.290  0.7746E+00  0.3244E+01
  -5.280  0.7461E+00  0.3251E+01
  -5.270  0.7184E+00  0.3259E+01
  -5.260  0.6922E+00  0.3266E+01
  -5.250  0.6684E+00  0.3272E+01
  -5.240  0.6473E+00  0.3279E+01
  -5.230  0.6294E+00  0.3285E+01
  -5.220  0.6148E+00  0.3291E+01
  -5.210  0.6034E+00  0.3297E+01
  -5.200  0.5950E+00  0.3303E+01
  -5.190  0.5893E+00  0.3309E+01
  -5.180  0.5857E+00  0.3315E+01
  -5.170  0.5838E+00  0.3321E+01
  -5.160  0.5829E+00  0.3327E+01
  -5.150  0.5824E+00  0.3332E+01
  -5.140  0.5817E+00  0.3338E+01
  -5.130  0.5799E+00  0.3344E+01
  -5.120  0.5767E+00  0.3350E+01
  -5.110  0.5712E+00  0.3355E+01
  -5.100  0.5632E+00  0.3361E+01
  -5.090  0.5520E+00  0.3367E+01
  -5.080  0.5374E+00  0.3372E+01
  -5.070  0.5190E+00  0.3377E+01
  -5.060  0.4969E+00  0.3382E+01
  -5.050  0.4711E+00  0.3387E+01
  -5.040  0.4416E+00  0.3391E+01
  -5.030  0.4089E+00  0.3395E+01
  -5.020  0.3735E+00  0.3399E+01
  -5.010  0.3360E+00  0.3402E+01
  -5.000  0.2972E+00  0.3405E+01
  -4.990  0.2578E+00  0.3408E+01
  -4.980  0.2189E+00  0.3410E+01
  -4.970  0.1813E+00  0.3412E+01
  -4.960  0.1459E+00  0.3413E+01
  -4.950  0.1137E+00  0.3415E+01
  -4.940  0.8525E-01  0.3415E+01
  -4.930  0.6130E-01  0.3416E+01
  -4.920  0.4226E-01  0.3416E+01
  -4.910  0.2841E-01  0.3417E+01
  -4.900  0.1985E-01  0.3417E+01
  -4.890  0.1649E-01  0.3417E+01
  -4.880  0.1810E-01  0.3417E+01
  -4.870  0.2426E-01  0.3418E+01
  -4.860  0.3445E-01  0.3418E+01
  -4.850  0.4802E-01  0.3418E+01
  -4.840  0.6426E-01  0.3419E+01
  -4.830  0.8243E-01  0.3420E+01
  -4.820  0.1018E+00  0.3421E+01
  -4.810  0.1215E+00  0.3422E+01
  -4.800  0.1410E+00  0.3423E+01
  -4.790  0.1597E+00  0.3425E+01
  -4.780  0.1770E+00  0.3427E+01
  -4.770  0.1926E+00  0.3429E+01
  -4.760  0.2064E+00  0.3431E+01
  -4.750  0.2183E+00  0.3433E+01
  -4.740  0.2285E+00  0.3435E+01
  -4.730  0.2373E+00  0.3438E+01
  -4.720  0.2451E+00  0.3440E+01
  -4.710  0.2527E+00  0.3443E+01
  -4.700  0.2606E+00  0.3445E+01
  -4.690  0.2697E+00  0.3448E+01
  -4.680  0.2807E+00  0.3451E+01
  -4.670  0.2944E+00  0.3454E+01
  -4.660  0.3113E+00  0.3457E+01
  -4.650  0.3321E+00  0.3460E+01
  -4.640  0.3570E+00  0.3464E+01
  -4.630  0.3861E+00  0.3468E+01
  -4.620  0.4193E+00  0.3472E+01
  -4.610  0.4563E+00  0.3476E+01
  -4.600  0.4964E+00  0.3481E+01
  -4.590  0.5389E+00  0.3487E+01
  -4.580  0.5828E+00  0.3493E+01
  -4.570  0.6268E+00  0.3499E+01
  -4.560  0.6698E+00  0.3505E+01
  -4.550  0.7105E+00  0.3513E+01
  -4.540  0.7475E+00  0.3520E+01
  -4.530  0.7795E+00  0.3528E+01
  -4.520  0.8054E+00  0.3536E+01
  -4.510  0.8242E+00  0.3544E+01
  -4.500  0.8350E+00  0.3553E+01
  -4.490  0.8373E+00  0.3561E+01
  -4.480  0.8305E+00  0.3569E+01
  -4.470  0.8146E+00  0.3577E+01
  -4.460  0.7897E+00  0.3585E+01
  -4.450  0.7562E+00  0.3593E+01
  -4.440  0.7147E+00  0.3600E+01
  -4.430  0.6661E+00  0.3607E+01
  -4.420  0.6115E+00  0.3613E+01
  -4.410  0.5522E+00  0.3618E+01
  -4.400  0.4895E+00  0.3623E+01
  -4.390  0.4249E+00  0.3627E+01
  -4.380  0.3599E+00  0.3631E+01
  -4.370  0.2959E+00  0.3634E+01
  -4.360  0.2343E+00  0.3636E+01
  -4.350  0.1763E+00  0.3638E+01
  -4.340  0.1229E+00  0.3639E+01
  -4.330  0.7502E-01  0.3640E+01
  -4.320  0.3314E-01  0.3640E+01
  -4.310 -0.2390E-02  0.3640E+01
  -4.300 -0.3147E-01  0.3640E+01
  -4.290 -0.5424E-01  0.3639E+01
  -4.280 -0.7103E-01  0.3639E+01
  -4.270 -0.8232E-01  0.3638E+01
  -4.260 -0.8871E-01  0.3637E+01
  -4.250 -0.9089E-01  0.3636E+01
  -4.240 -0.8954E-01  0.3635E+01
  -4.230 -0.8538E-01  0.3634E+01
  -4.220 -0.7906E-01  0.3634E+01
  -4.210 -0.7115E-01  0.3633E+01
  -4.200 -0.6216E-01  0.3632E+01
  -4.190 -0.5247E-01  0.3632E+01
  -4.180 -0.4239E-01  0.3631E+01
  -4.170 -0.3210E-01  0.3631E+01
  -4.160 -0.2170E-01  0.3631E+01
  -4.150 -0.1121E-01  0.3631E+01
  -4.140 -0.5981E-03  0.3631E+01
  -4.130  0.1024E-01  0.3631E+01
  -4.120  0.2140E-01  0.3631E+01
  -4.110  0.3300E-01  0.3631E+01
  -4.100  0.4515E-01  0.3632E+01
  -4.090  0.5791E-01  0.3632E+01
  -4.080  0.7130E-01  0.3633E+01
  -4.070  0.8528E-01  0.3634E+01
  -4.060  0.9976E-01  0.3635E+01
  -4.050  0.1145E+00  0.3636E+01
  -4.040  0.1294E+00  0.3637E+01
  -4.030  0.1440E+00  0.3639E+01
  -4.020  0.1579E+00  0.3640E+01
  -4.010  0.1708E+00  0.3642E+01
  -4.000  0.1822E+00  0.3644E+01
  -3.990  0.1917E+00  0.3646E+01
  -3.980  0.1990E+00  0.3648E+01
  -3.970  0.2036E+00  0.3650E+01
